# == pyFAI calibration ==
# SplineFile: None
# PixelSize: 1.000e-04, 1.000e-04 m
# PONI: 1.702e-01, 2.002e-01 m
# Distance Sample to Detector: 0.720588490947 m
# Rotations: -0.122173 0.000000 0.000000 rad
# 
# == Fit2d calibration ==
# Distance Sample-beamCenter: 726.000 mm
# Center: x=2887.000, y=1702.000 pix
# Tilt: 7.000 deg  TiltPlanRot: 0.000 deg
# 
# Wavelength: 7.09e-10
# --> C:\Python27\lib\site-packages\pySAXS\saxsdata\OT-2012-10-12-tetradecanol-3600s.TIFF.rgr
#       q_nm^-1              I           sigma 
  1.987069e-03    7.217389e+00   4.593047e-01
  5.961205e-03    6.437224e+00   2.528382e-01
  9.935342e-03    6.653916e+00   1.994207e-01
  1.390948e-02    7.830622e+00   1.826718e-01
  1.788362e-02    1.800027e+01   2.439120e-01
  2.185775e-02    8.799860e+01   4.883380e-01
  2.583189e-02    2.318989e+02   7.345039e-01
  2.980603e-02    1.492047e+02   6.231053e-01
  3.378016e-02    7.647665e+01   4.697487e-01
  3.775430e-02    7.589863e+01   4.784292e-01
  4.172844e-02    7.773563e+01   5.535114e-01
  4.570257e-02    5.085521e+01   5.250659e-01
  4.967671e-02    2.822569e+01   4.231434e-01
  5.365085e-02    2.433982e+01   3.956818e-01
  5.762498e-02    2.163528e+01   3.743376e-01
  6.159912e-02    1.974007e+01   3.584632e-01
  6.557326e-02    1.757470e+01   3.389934e-01
  6.954739e-02    1.725603e+01   3.365356e-01
  7.352153e-02    1.596700e+01   3.234371e-01
  7.749567e-02    1.402430e+01   3.032395e-01
  8.146981e-02    1.206253e+01   2.815308e-01
  8.544394e-02    1.165798e+01   2.770140e-01
  8.941808e-02    1.116536e+01   2.704183e-01
  9.339222e-02    1.119912e+01   2.710038e-01
  9.736635e-02    1.070234e+01   2.645819e-01
  1.013405e-01    1.050330e+01   2.619824e-01
  1.053146e-01    1.025918e+01   2.590373e-01
  1.092888e-01    1.044845e+01   2.615172e-01
  1.132629e-01    1.037800e+01   2.598771e-01
  1.172370e-01    9.868424e+00   2.534929e-01
  1.212112e-01    9.323981e+00   2.464682e-01
  1.251853e-01    1.017939e+01   2.575903e-01
  1.291594e-01    1.375103e+01   2.986378e-01
  1.331336e-01    1.585799e+01   3.207653e-01
  1.371077e-01    1.598714e+01   3.215136e-01
  1.410819e-01    1.536001e+01   3.177416e-01
  1.450560e-01    1.724918e+01   3.394470e-01
  1.490301e-01    2.613248e+01   4.235469e-01
  1.530043e-01    7.661770e+01   7.303446e-01
  1.569784e-01    1.864064e+02   1.148788e+00
  1.609525e-01    2.381101e+02   1.295117e+00
  1.649267e-01    1.569430e+02   1.052272e+00
  1.689008e-01    5.658477e+01   6.313659e-01
  1.728750e-01    2.187807e+01   3.930124e-01
  1.768491e-01    1.462611e+01   3.209926e-01
  1.808232e-01    1.366396e+01   3.106784e-01
  1.847974e-01    1.463263e+01   3.210580e-01
  1.887715e-01    1.532056e+01   3.289550e-01
  1.927456e-01    1.634849e+01   3.382548e-01
  1.967198e-01    1.464287e+01   3.214282e-01
  2.006939e-01    1.364154e+01   3.091897e-01
  2.046680e-01    1.308298e+01   3.036627e-01
  2.086422e-01    1.339742e+01   3.066052e-01
  2.126163e-01    1.355712e+01   3.089478e-01
  2.165905e-01    1.296881e+01   3.018437e-01
  2.205646e-01    1.278748e+01   2.998831e-01
  2.245387e-01    1.388179e+01   3.113784e-01
  2.285129e-01    1.311802e+01   3.025025e-01
  2.324870e-01    1.324149e+01   3.042834e-01
  2.364611e-01    1.420447e+01   3.146031e-01
  2.404353e-01    1.481452e+01   3.220093e-01
  2.444094e-01    1.385663e+01   3.105654e-01
  2.483836e-01    1.372064e+01   3.098620e-01
  2.523577e-01    1.287853e+01   2.994180e-01
  2.563318e-01    1.345628e+01   3.057631e-01
  2.603060e-01    1.267859e+01   2.970963e-01
  2.642801e-01    1.167479e+01   2.847739e-01
  2.682542e-01    1.329920e+01   3.042882e-01
  2.722284e-01    1.285634e+01   2.988036e-01
  2.762025e-01    1.175809e+01   2.861193e-01
  2.801766e-01    1.110284e+01   2.776479e-01
  2.841508e-01    1.108062e+01   2.777552e-01
  2.881249e-01    1.168184e+01   2.847614e-01
  2.920991e-01    1.154872e+01   2.827267e-01
  2.960732e-01    1.140012e+01   2.811246e-01
  3.000473e-01    1.112054e+01   2.772674e-01
  3.040215e-01    1.126305e+01   2.785975e-01
  3.079956e-01    1.256104e+01   2.944987e-01
  3.119697e-01    1.547423e+01   3.267045e-01
  3.159439e-01    1.854813e+01   3.576459e-01
  3.199180e-01    1.756698e+01   3.480858e-01
  3.238922e-01    1.506921e+01   3.212191e-01
  3.278663e-01    1.180221e+01   2.852736e-01
  3.318404e-01    1.085361e+01   2.726008e-01
  3.358146e-01    1.065835e+01   2.710625e-01
  3.397887e-01    1.047857e+01   2.678377e-01
  3.437628e-01    1.050237e+01   2.690360e-01
  3.477370e-01    1.005844e+01   2.624010e-01
  3.517111e-01    9.471575e+00   2.554577e-01
  3.556852e-01    1.108959e+01   2.755087e-01
  3.596594e-01    1.175030e+01   2.835198e-01
  3.636335e-01    1.126312e+01   2.776400e-01
  3.676077e-01    1.117617e+01   2.764683e-01
  3.715818e-01    1.208953e+01   2.876278e-01
  3.755559e-01    1.116419e+01   2.762815e-01
  3.795301e-01    1.205868e+01   2.871302e-01
  3.835042e-01    1.331734e+01   3.018255e-01
  3.874783e-01    1.285745e+01   2.952835e-01
  3.914525e-01    1.396094e+01   3.081217e-01
  3.954266e-01    1.390405e+01   3.068647e-01
  3.994008e-01    1.475001e+01   3.168502e-01
  4.033749e-01    1.392728e+01   3.069199e-01
  4.073490e-01    1.331786e+01   3.012080e-01
  4.113232e-01    1.369777e+01   3.041795e-01
  4.152973e-01    1.366043e+01   3.051925e-01
  4.192714e-01    1.363692e+01   3.033014e-01
  4.232456e-01    1.233028e+01   2.893270e-01
  4.272197e-01    1.278078e+01   2.931987e-01
  4.311938e-01    1.284322e+01   2.952399e-01
  4.351680e-01    1.317492e+01   2.977382e-01
  4.391421e-01    1.154920e+01   2.798560e-01
  4.431163e-01    1.090020e+01   2.709380e-01
  4.470904e-01    1.104125e+01   2.734449e-01
  4.510645e-01    1.090975e+01   2.711024e-01
  4.550387e-01    1.050420e+01   2.657043e-01
  4.590128e-01    1.175475e+01   2.813632e-01
  4.629869e-01    1.168192e+01   2.801772e-01
  4.669611e-01    1.230314e+01   2.871149e-01
  4.709352e-01    1.669659e+01   3.346087e-01
  4.749094e-01    2.260732e+01   3.889279e-01
  4.788835e-01    2.125400e+01   3.776912e-01
  4.828576e-01    1.681659e+01   3.352557e-01
  4.868318e-01    1.363091e+01   3.025575e-01
  4.908059e-01    1.163101e+01   2.778452e-01
  4.947800e-01    1.158312e+01   2.788769e-01
  4.987542e-01    1.103772e+01   2.706252e-01
  5.027283e-01    1.135619e+01   2.761018e-01
  5.067024e-01    1.153383e+01   2.765977e-01
  5.106766e-01    1.111530e+01   2.730070e-01
  5.146507e-01    1.044500e+01   2.632928e-01
  5.186249e-01    1.137162e+01   2.750179e-01
  5.225990e-01    1.058868e+01   2.652181e-01
  5.265731e-01    1.039903e+01   2.628031e-01
  5.305473e-01    9.931767e+00   2.569770e-01
  5.345214e-01    1.032662e+01   2.616956e-01
  5.384955e-01    9.941581e+00   2.572218e-01
  5.424697e-01    9.486387e+00   2.506400e-01
  5.464438e-01    1.000425e+01   2.581503e-01
  5.504180e-01    1.037076e+01   2.618696e-01
  5.543921e-01    1.049940e+01   2.629574e-01
  5.583662e-01    1.006715e+01   2.576988e-01
  5.623404e-01    1.012026e+01   2.581244e-01
  5.663145e-01    1.039904e+01   2.618808e-01
  5.702886e-01    1.089400e+01   2.677666e-01
  5.742628e-01    1.121127e+01   2.718823e-01
  5.782369e-01    1.026188e+01   2.598403e-01
  5.822110e-01    1.003883e+01   2.570390e-01
  5.861852e-01    1.060591e+01   2.634575e-01
  5.901593e-01    1.346076e+01   2.974141e-01
  5.941335e-01    1.271740e+01   2.886296e-01
  5.981076e-01    1.179931e+01   2.782414e-01
  6.020817e-01    1.172468e+01   2.772666e-01
  6.060559e-01    1.086832e+01   2.668331e-01
  6.100300e-01    1.100074e+01   2.686980e-01
  6.140041e-01    1.141468e+01   2.732466e-01
  6.179783e-01    1.192439e+01   2.798857e-01
  6.219524e-01    1.190493e+01   2.779286e-01
  6.259266e-01    1.307280e+01   2.931676e-01
  6.299007e-01    1.468868e+01   3.084650e-01
  6.338748e-01    2.125015e+01   1.992242e-01
  6.378490e-01    2.045303e+01   1.509725e-01
  6.418231e-01    1.906421e+01   1.348143e-01
  6.457972e-01    1.793102e+01   1.235135e-01
  6.497714e-01    1.799419e+01   1.184444e-01
  6.537455e-01    1.771596e+01   1.133000e-01
  6.577196e-01    1.785816e+01   1.102275e-01
  6.616938e-01    1.734680e+01   1.056823e-01
  6.656679e-01    1.714670e+01   1.025316e-01
  6.696421e-01    1.714587e+01   1.002216e-01
  6.736162e-01    1.722252e+01   9.987968e-02
  6.775903e-01    1.643850e+01   1.054832e-01
  6.815645e-01    1.576732e+01   1.077081e-01
  6.855386e-01    1.517262e+01   1.086212e-01
  6.895127e-01    1.439955e+01   1.081448e-01
  6.934869e-01    1.367674e+01   1.070914e-01
  6.974610e-01    1.331258e+01   1.073698e-01
  7.014352e-01    1.314278e+01   1.077870e-01
  7.054093e-01    1.256371e+01   1.066656e-01
  7.093834e-01    1.239441e+01   1.067414e-01
  7.133576e-01    1.190907e+01   1.056545e-01
  7.173317e-01    1.139365e+01   1.037289e-01
  7.213058e-01    1.110670e+01   1.032298e-01
  7.252800e-01    1.127490e+01   1.043628e-01
  7.292541e-01    1.077564e+01   1.024106e-01
  7.332282e-01    1.076532e+01   1.021623e-01
  7.372024e-01    1.039057e+01   1.005232e-01
  7.411765e-01    9.739621e+00   9.838230e-02
  7.451507e-01    9.217268e+00   9.693254e-02
  7.491248e-01    9.038115e+00   9.657758e-02
  7.530989e-01    8.846382e+00   9.597978e-02
  7.570731e-01    8.514769e+00   9.464632e-02
  7.610472e-01    8.008939e+00   9.242985e-02
  7.650213e-01    7.822772e+00   9.190780e-02
  7.689955e-01    7.260781e+00   8.918044e-02
  7.729696e-01    6.749176e+00   8.658101e-02
  7.769438e-01    6.655464e+00   8.636037e-02
  7.809179e-01    7.050805e+00   8.807783e-02
  7.848920e-01    7.884471e+00   9.211233e-02
  7.888662e-01    8.578863e+00   9.508194e-02
  7.928403e-01    8.489431e+00   9.362753e-02
  7.968144e-01    8.230042e+00   9.140594e-02
  8.007886e-01    7.701611e+00   8.763317e-02
  8.047627e-01    7.538737e+00   8.595473e-02
  8.087368e-01    7.223570e+00   8.349639e-02
  8.127110e-01    7.015239e+00   8.166364e-02
  8.166851e-01    6.962962e+00   8.076110e-02
  8.206593e-01    6.886870e+00   7.978603e-02
  8.246334e-01    6.752192e+00   7.848766e-02
  8.286075e-01    6.530166e+00   7.669100e-02
  8.325817e-01    6.564611e+00   7.641418e-02
  8.365558e-01    6.647799e+00   7.643040e-02
  8.405299e-01    6.457335e+00   7.490746e-02
  8.445041e-01    6.418011e+00   7.426301e-02
  8.484782e-01    6.439947e+00   7.397837e-02
  8.524524e-01    6.350189e+00   7.307867e-02
  8.564265e-01    6.139595e+00   7.149425e-02
  8.604006e-01    6.165154e+00   7.127199e-02
  8.643748e-01    5.815049e+00   6.888004e-02
  8.683489e-01    5.642215e+00   6.752476e-02
  8.723230e-01    5.767822e+00   6.793297e-02
  8.762972e-01    5.845863e+00   6.811875e-02
  8.802713e-01    5.700744e+00   6.694952e-02
  8.842454e-01    5.657322e+00   6.640464e-02
  8.882196e-01    5.737219e+00   6.657505e-02
  8.921937e-01    5.680355e+00   6.598355e-02
  8.961679e-01    5.534058e+00   6.483168e-02
  9.001420e-01    5.322114e+00   6.332725e-02
  9.041161e-01    5.333665e+00   6.313111e-02
  9.080903e-01    5.202676e+00   6.213455e-02
  9.120644e-01    5.028598e+00   6.083630e-02
  9.160385e-01    5.216803e+00   6.172616e-02
  9.200127e-01    4.935318e+00   5.980756e-02
  9.239868e-01    4.868366e+00   5.916719e-02
  9.279609e-01    4.809114e+00   5.850114e-02
  9.319351e-01    4.801043e+00   5.819257e-02
  9.359092e-01    4.812644e+00   5.797263e-02
  9.398834e-01    5.068233e+00   5.922035e-02
  9.438575e-01    5.156451e+00   5.946347e-02
  9.478316e-01    5.252425e+00   5.974837e-02
  9.518058e-01    5.066588e+00   5.839320e-02
  9.557799e-01    5.018584e+00   5.774941e-02
  9.597540e-01    4.793095e+00   5.606829e-02
  9.637282e-01    4.682422e+00   5.505040e-02
  9.677023e-01    4.560050e+00   5.396950e-02
  9.716765e-01    4.605022e+00   5.391468e-02
  9.756506e-01    4.740235e+00   5.438371e-02
  9.796247e-01    4.666894e+00   5.366531e-02
  9.835989e-01    4.690921e+00   5.349337e-02
  9.875730e-01    4.475955e+00   5.198010e-02
  9.915471e-01    4.505886e+00   5.187721e-02
  9.955213e-01    4.503643e+00   5.159424e-02
  9.994954e-01    4.509912e+00   5.136329e-02
  1.003470e+00    4.531554e+00   5.122479e-02
  1.007444e+00    4.595347e+00   5.129601e-02
  1.011418e+00    4.720386e+00   5.174866e-02
  1.015392e+00    4.742362e+00   5.162305e-02
  1.019366e+00    4.769018e+00   5.153209e-02
  1.023340e+00    4.817687e+00   5.155077e-02
  1.027314e+00    4.697162e+00   5.068189e-02
  1.031289e+00    4.614074e+00   5.000047e-02
  1.035263e+00    4.450914e+00   4.890251e-02
  1.039237e+00    4.381415e+00   4.830420e-02
  1.043211e+00    4.273332e+00   4.751643e-02
  1.047185e+00    4.259176e+00   4.722724e-02
  1.051159e+00    4.430691e+00   4.795023e-02
  1.055133e+00    4.279657e+00   4.693750e-02
  1.059107e+00    4.265613e+00   4.668099e-02
  1.063082e+00    4.259543e+00   4.645863e-02
  1.067056e+00    4.216989e+00   4.604740e-02
  1.071030e+00    4.313801e+00   4.640134e-02
  1.075004e+00    4.210423e+00   4.565829e-02
  1.078978e+00    4.076897e+00   4.476956e-02
  1.082952e+00    3.889952e+00   4.356607e-02
  1.086926e+00    3.828185e+00   4.306826e-02
  1.090901e+00    3.872643e+00   4.315981e-02
  1.094875e+00    3.796815e+00   4.256487e-02
  1.098849e+00    4.012537e+00   4.360417e-02
  1.102823e+00    4.042361e+00   4.361145e-02
  1.106797e+00    4.175669e+00   4.417605e-02
  1.110771e+00    4.272612e+00   4.452462e-02
  1.114745e+00    4.207842e+00   4.404795e-02
  1.118720e+00    4.002943e+00   4.281536e-02
  1.122694e+00    3.901972e+00   4.212936e-02
  1.126668e+00    3.677211e+00   4.077165e-02
  1.130642e+00    3.610912e+00   4.026665e-02
  1.134616e+00    3.531953e+00   3.970465e-02
  1.138590e+00    3.628386e+00   4.011014e-02
  1.142564e+00    3.473940e+00   3.911643e-02
  1.146538e+00    3.369998e+00   3.839935e-02
  1.150513e+00    3.342497e+00   3.811893e-02
  1.154487e+00    3.260939e+00   3.754353e-02
  1.158461e+00    3.365500e+00   3.802051e-02
  1.162435e+00    3.291782e+00   3.749639e-02
  1.166409e+00    3.285138e+00   3.734257e-02
  1.170383e+00    3.172101e+00   3.658620e-02
  1.174357e+00    3.169378e+00   3.646674e-02
  1.178332e+00    2.997044e+00   3.535780e-02
  1.182306e+00    3.039657e+00   3.550874e-02
  1.186280e+00    3.027874e+00   3.533370e-02
  1.190254e+00    3.083209e+00   3.552758e-02
  1.194228e+00    2.899957e+00   3.430383e-02
  1.198202e+00    2.977254e+00   3.461912e-02
  1.202176e+00    2.974718e+00   3.445691e-02
  1.206151e+00    2.912400e+00   3.395257e-02
  1.210125e+00    3.029259e+00   3.449897e-02
  1.214099e+00    3.126862e+00   3.490578e-02
  1.218073e+00    3.249492e+00   3.544630e-02
  1.222047e+00    3.217928e+00   3.513727e-02
  1.226021e+00    3.076550e+00   3.422167e-02
  1.229995e+00    3.041741e+00   3.390961e-02
  1.233969e+00    3.184013e+00   3.456197e-02
  1.237944e+00    3.251827e+00   3.479488e-02
  1.241918e+00    3.229266e+00   3.455485e-02
  1.245892e+00    3.336660e+00   3.499367e-02
  1.249866e+00    3.228300e+00   3.430097e-02
  1.253840e+00    3.181338e+00   3.393098e-02
  1.257814e+00    3.225758e+00   3.404493e-02
  1.261788e+00    3.239861e+00   3.400933e-02
  1.265763e+00    3.270829e+00   3.405580e-02
  1.269737e+00    3.331476e+00   3.424683e-02
  1.273711e+00    3.496652e+00   3.497823e-02
  1.277685e+00    3.576824e+00   3.525705e-02
  1.281659e+00    3.385471e+00   3.418519e-02
  1.285633e+00    3.099557e+00   3.259928e-02
  1.289607e+00    3.008052e+00   3.197610e-02
  1.293582e+00    2.846002e+00   3.098447e-02
  1.297556e+00    2.777113e+00   3.048702e-02
  1.301530e+00    2.787674e+00   3.041949e-02
  1.305504e+00    2.910003e+00   3.096608e-02
  1.309478e+00    2.829494e+00   3.041344e-02
  1.313452e+00    2.753353e+00   2.986801e-02
  1.317426e+00    2.847883e+00   3.027378e-02
  1.321400e+00    2.798503e+00   2.989447e-02
  1.325375e+00    2.896257e+00   3.029577e-02
  1.329349e+00    2.901140e+00   3.022332e-02
  1.333323e+00    2.999969e+00   3.061895e-02
  1.337297e+00    3.020171e+00   3.060630e-02
  1.341271e+00    4.757563e+00   3.670042e-02
  1.345245e+00    6.144249e+00   4.002988e-02
  1.349219e+00    6.299535e+00   4.003571e-02
  1.353194e+00    6.316561e+00   3.997873e-02
  1.357168e+00    6.399331e+00   4.012468e-02
  1.361142e+00    6.532533e+00   4.042174e-02
  1.365116e+00    6.766358e+00   4.103257e-02
  1.369090e+00    7.031001e+00   4.169497e-02
  1.373064e+00    7.492885e+00   4.291906e-02
  1.377038e+00    7.637919e+00   4.322156e-02
  1.381013e+00    7.958432e+00   4.400104e-02
  1.384987e+00    8.014891e+00   4.403193e-02
  1.388961e+00    7.940370e+00   4.372128e-02
  1.392935e+00    8.100636e+00   4.404356e-02
  1.396909e+00    7.952837e+00   4.351800e-02
  1.400883e+00    8.122043e+00   4.385715e-02
  1.404857e+00    8.505813e+00   4.476971e-02
  1.408832e+00    8.992717e+00   4.591037e-02
  1.412806e+00    9.269911e+00   4.649983e-02
  1.416780e+00    9.991885e+00   4.815807e-02
  1.420754e+00    1.113800e+01   5.071508e-02
  1.424728e+00    1.135708e+01   5.108552e-02
  1.428702e+00    1.059406e+01   4.922053e-02
  1.432676e+00    1.027789e+01   4.834339e-02
  1.436650e+00    1.002809e+01   4.763499e-02
  1.440625e+00    1.029265e+01   4.815734e-02
  1.444599e+00    1.034958e+01   4.816513e-02
  1.448573e+00    1.052813e+01   4.845988e-02
  1.452547e+00    1.082797e+01   4.904401e-02
  1.456521e+00    1.104998e+01   4.942182e-02
  1.460495e+00    1.107421e+01   4.935190e-02
  1.464469e+00    1.100762e+01   4.908439e-02
  1.468444e+00    1.098972e+01   4.893221e-02
  1.472418e+00    1.118372e+01   4.924776e-02
  1.476392e+00    1.096294e+01   4.864826e-02
  1.480366e+00    1.110380e+01   4.885557e-02
  1.484340e+00    1.145063e+01   4.950069e-02
  1.488314e+00    1.201669e+01   5.058838e-02
  1.492288e+00    1.432681e+01   5.512471e-02
  1.496263e+00    2.346572e+01   7.037254e-02
  1.500237e+00    4.656178e+01   9.889757e-02
  1.504211e+00    8.284524e+01   1.316566e-01
  1.508185e+00    1.131367e+02   1.535264e-01
  1.512159e+00    9.345526e+01   1.428553e-01
  1.516133e+00    5.226523e+01   1.106023e-01
  1.520107e+00    3.771030e+01   9.448975e-02
  1.524081e+00    2.719238e+01   8.003391e-02
  1.528056e+00    1.798953e+01   6.491033e-02
  1.532030e+00    1.059962e+01   4.967983e-02
  1.536004e+00    6.592036e+00   3.906032e-02
  1.539978e+00    5.340026e+00   3.504976e-02
  1.543952e+00    5.158442e+00   3.434840e-02
  1.547926e+00    4.965583e+00   3.360684e-02
  1.551900e+00    4.847746e+00   3.310334e-02
  1.555875e+00    4.400398e+00   3.144965e-02
  1.559849e+00    4.321994e+00   3.108592e-02
  1.563823e+00    4.609631e+00   3.200720e-02
  1.567797e+00    5.157148e+00   3.375592e-02
  1.571771e+00    5.507639e+00   3.479791e-02
  1.575745e+00    5.626544e+00   3.505824e-02
  1.579719e+00    5.490346e+00   3.451718e-02
  1.583694e+00    5.140210e+00   3.329230e-02
  1.587668e+00    4.711614e+00   3.176508e-02
  1.591642e+00    4.284904e+00   3.019807e-02
  1.595616e+00    3.977831e+00   2.899945e-02
  1.599590e+00    3.609004e+00   2.753529e-02
  1.603564e+00    3.405096e+00   2.666403e-02
  1.607538e+00    3.153656e+00   2.557761e-02
  1.611512e+00    3.171201e+00   2.557253e-02
  1.615487e+00    3.098146e+00   2.519713e-02
  1.619461e+00    3.101864e+00   2.513813e-02
  1.623435e+00    2.885292e+00   2.417181e-02
  1.627409e+00    2.934748e+00   2.430309e-02
  1.631383e+00    2.990218e+00   2.446132e-02
  1.635357e+00    3.024943e+00   2.452928e-02
  1.639331e+00    3.051641e+00   2.456488e-02
  1.643306e+00    3.035518e+00   2.443074e-02
  1.647280e+00    3.049155e+00   2.441313e-02
  1.651254e+00    3.015142e+00   2.420967e-02
  1.655228e+00    3.042560e+00   2.425168e-02
  1.659202e+00    2.940044e+00   2.377357e-02
  1.663176e+00    3.086805e+00   2.429145e-02
  1.667150e+00    3.103956e+00   2.429104e-02
  1.671125e+00    3.046812e+00   2.400234e-02
  1.675099e+00    3.081113e+00   2.406865e-02
  1.679073e+00    3.162866e+00   2.432137e-02
  1.683047e+00    3.289865e+00   2.473904e-02
  1.687021e+00    3.394916e+00   2.506245e-02
  1.690995e+00    3.907849e+00   2.682037e-02
  1.694969e+00    5.334983e+00   3.125829e-02
  1.698943e+00    8.641563e+00   3.967639e-02
  1.702918e+00    1.252899e+01   4.765001e-02
  1.706892e+00    1.604273e+01   5.378204e-02
  1.710866e+00    1.949726e+01   5.913971e-02
  1.714840e+00    1.826184e+01   5.708818e-02
  1.718814e+00    1.330784e+01   4.861051e-02
  1.722788e+00    1.008174e+01   4.220562e-02
  1.726762e+00    6.900905e+00   3.483036e-02
  1.730737e+00    4.207727e+00   2.713216e-02
  1.734711e+00    3.066392e+00   2.310693e-02
  1.738685e+00    2.772644e+00   2.191758e-02
  1.742659e+00    2.760241e+00   2.181507e-02
  1.746633e+00    2.726219e+00   2.162834e-02
  1.750607e+00    2.647586e+00   2.126326e-02
  1.754581e+00    2.544587e+00   2.079567e-02
  1.758556e+00    2.374132e+00   2.003884e-02
  1.762530e+00    2.317501e+00   1.975330e-02
  1.766504e+00    2.222790e+00   1.929817e-02
  1.770478e+00    2.169883e+00   1.902407e-02
  1.774452e+00    1.996850e+00   1.820824e-02
  1.778426e+00    1.952213e+00   1.796274e-02
  1.782400e+00    1.999671e+00   1.813926e-02
  1.786375e+00    1.993592e+00   1.806904e-02
  1.790349e+00    1.966728e+00   1.790729e-02
  1.794323e+00    1.859908e+00   1.737420e-02
  1.798297e+00    1.819688e+00   1.714626e-02
  1.802271e+00    1.763391e+00   1.684308e-02
  1.806245e+00    1.769854e+00   1.683479e-02
  1.810219e+00    1.686663e+00   1.639892e-02
  1.814193e+00    1.660002e+00   1.623340e-02
  1.818168e+00    1.626515e+00   1.603325e-02
  1.822142e+00    1.622641e+00   1.598186e-02
  1.826116e+00    1.600665e+00   1.583849e-02
  1.830090e+00    1.515639e+00   1.537880e-02
  1.834064e+00    1.476426e+00   1.514605e-02
  1.838038e+00    1.443163e+00   1.494189e-02
  1.842012e+00    1.497133e+00   1.518291e-02
  1.845987e+00    1.434399e+00   1.482563e-02
  1.849961e+00    1.497083e+00   1.511168e-02
  1.853935e+00    1.497607e+00   1.507776e-02
  1.857909e+00    1.493877e+00   1.502384e-02
  1.861883e+00    1.451654e+00   1.477506e-02
  1.865857e+00    1.385645e+00   1.440348e-02
  1.869831e+00    1.383538e+00   1.435877e-02
  1.873806e+00    1.320408e+00   1.399662e-02
  1.877780e+00    1.332515e+00   1.402838e-02
  1.881754e+00    1.301636e+00   1.383250e-02
  1.885728e+00    1.269962e+00   1.363378e-02
  1.889702e+00    1.266212e+00   1.358179e-02
  1.893676e+00    1.310703e+00   1.378928e-02
  1.897650e+00    1.280018e+00   1.359573e-02
  1.901624e+00    1.191798e+00   1.309019e-02
  1.905599e+00    1.171129e+00   1.294836e-02
  1.909573e+00    1.206166e+00   1.311188e-02
  1.913547e+00    1.163131e+00   1.284907e-02
  1.917521e+00    1.085289e+00   1.238440e-02
  1.921495e+00    1.084675e+00   1.235485e-02
  1.925469e+00    1.079911e+00   1.230151e-02
  1.929443e+00    1.081134e+00   1.227995e-02
  1.933418e+00    1.076383e+00   1.222241e-02
  1.937392e+00    1.092116e+00   1.227999e-02
  1.941366e+00    1.097544e+00   1.227983e-02
  1.945340e+00    1.065681e+00   1.206912e-02
  1.949314e+00    1.035440e+00   1.186697e-02
  1.953288e+00    1.060009e+00   1.197661e-02
  1.957262e+00    1.053438e+00   1.191089e-02
  1.961237e+00    1.017424e+00   1.167673e-02
  1.965211e+00    1.003665e+00   1.157015e-02
  1.969185e+00    1.030081e+00   1.169274e-02
  1.973159e+00    1.027658e+00   1.165089e-02
  1.977133e+00    1.041409e+00   1.170076e-02
  1.981107e+00    1.031736e+00   1.161760e-02
  1.985081e+00    1.073423e+00   1.182298e-02
  1.989055e+00    1.057225e+00   1.170654e-02
  1.993030e+00    1.054885e+00   1.166739e-02
  1.997004e+00    1.061674e+00   1.167657e-02
  2.000978e+00    1.010886e+00   1.136786e-02
  2.004952e+00    1.039467e+00   1.150119e-02
  2.008926e+00    1.038249e+00   1.146781e-02
  2.012900e+00    1.051330e+00   1.151450e-02
  2.016874e+00    1.078404e+00   1.163490e-02
  2.020849e+00    1.059633e+00   1.150918e-02
  2.024823e+00    1.067796e+00   1.152699e-02
  2.028797e+00    1.036910e+00   1.133478e-02
  2.032771e+00    1.029748e+00   1.126984e-02
  2.036745e+00    1.050736e+00   1.164012e-02
  2.040719e+00    1.107508e+00   1.231286e-02
  2.044693e+00    1.138762e+00   1.270570e-02
  2.048668e+00    1.169210e+00   1.305549e-02
  2.052642e+00    1.224688e+00   1.352342e-02
  2.056616e+00    1.188244e+00   1.346391e-02
  2.060590e+00    1.211126e+00   1.372471e-02
  2.064564e+00    1.278789e+00   1.423064e-02
  2.068538e+00    1.302600e+00   1.448333e-02
  2.072512e+00    1.371335e+00   1.497757e-02
  2.076486e+00    1.351475e+00   1.498111e-02
  2.080461e+00    1.363373e+00   1.515496e-02
  2.084435e+00    1.325833e+00   1.504869e-02
  2.088409e+00    1.405159e+00   1.590372e-02
  2.092383e+00    1.636533e+00   1.825396e-02
  2.096357e+00    1.719658e+00   1.949752e-02
  2.100331e+00    1.868904e+00   2.106717e-02
  2.104305e+00    2.175662e+00   2.350628e-02
  2.108280e+00    2.429444e+00   2.565083e-02
  2.112254e+00    2.804090e+00   2.845395e-02
  2.116228e+00    3.129884e+00   3.102636e-02
  2.120202e+00    3.085065e+00   3.175597e-02
  2.124176e+00    3.076779e+00   3.250623e-02
  2.128150e+00    3.053066e+00   3.317319e-02
  2.132124e+00    3.080602e+00   3.414098e-02
  2.136099e+00    2.924597e+00   3.408193e-02
  2.140073e+00    3.046612e+00   3.558362e-02
  2.144047e+00    3.203596e+00   3.734696e-02
  2.148021e+00    3.283510e+00   3.870060e-02
  2.151995e+00    3.374307e+00   4.017421e-02
  2.155969e+00    3.599609e+00   4.249778e-02
  2.159943e+00    3.880543e+00   4.520354e-02
  2.163918e+00    3.994286e+00   4.702920e-02
  2.167892e+00    4.100063e+00   4.883350e-02
  2.171866e+00    4.317062e+00   5.090083e-02
  2.175840e+00    4.545326e+00   5.285324e-02
  2.179814e+00    4.506707e+00   5.324001e-02
  2.183788e+00    4.498393e+00   5.380187e-02
  2.187762e+00    4.368765e+00   5.363831e-02
  2.191736e+00    4.566377e+00   5.547638e-02
  2.195711e+00    4.856924e+00   5.787662e-02
  2.199685e+00    5.003053e+00   5.936149e-02
  2.203659e+00    5.047745e+00   6.030732e-02
  2.207633e+00    5.162451e+00   6.168807e-02
  2.211607e+00    5.234858e+00   6.281772e-02
  2.215581e+00    5.406004e+00   6.451895e-02
  2.219555e+00    5.588886e+00   6.637442e-02
  2.223530e+00    5.740476e+00   6.806842e-02
  2.227504e+00    5.640152e+00   6.820508e-02
  2.231478e+00    5.494768e+00   6.807146e-02
  2.235452e+00    5.585752e+00   6.941831e-02
  2.239426e+00    6.122704e+00   7.348942e-02
  2.243400e+00    6.073353e+00   7.399154e-02
  2.247374e+00    5.962749e+00   7.421416e-02
  2.251349e+00    6.188691e+00   7.643470e-02
  2.255323e+00    6.167655e+00   7.716805e-02
  2.259297e+00    6.215929e+00   7.845021e-02
  2.263271e+00    6.409145e+00   8.060465e-02
  2.267245e+00    6.369626e+00   8.120450e-02
  2.271219e+00    6.833958e+00   8.517952e-02
  2.275193e+00    6.745688e+00   8.560457e-02
  2.279167e+00    6.868967e+00   8.739345e-02
  2.283142e+00    7.236053e+00   9.080475e-02
  2.287116e+00    7.454118e+00   9.331989e-02
  2.291090e+00    7.240811e+00   9.302954e-02
  2.295064e+00    7.463115e+00   9.573291e-02
  2.299038e+00    7.290898e+00   9.586359e-02
  2.303012e+00    7.655309e+00   9.935273e-02
  2.306986e+00    7.685407e+00   1.009021e-01
  2.310961e+00    7.654346e+00   1.020104e-01
  2.314935e+00    7.958858e+00   1.052954e-01
  2.318909e+00    7.936379e+00   1.066602e-01
  2.322883e+00    8.114245e+00   1.092728e-01
  2.326857e+00    8.201134e+00   1.113129e-01
  2.330831e+00    8.440187e+00   1.146183e-01
  2.334805e+00    8.507931e+00   1.164967e-01
  2.338780e+00    9.005960e+00   1.204084e-01
  2.342754e+00    8.920459e+00   1.207116e-01
  2.346728e+00    9.217724e+00   1.233367e-01
  2.350702e+00    9.482335e+00   1.257873e-01
  2.354676e+00    9.709518e+00   1.281924e-01
  2.358650e+00    1.007163e+01   1.306396e-01
  2.362624e+00    1.013254e+01   1.316105e-01
  2.366598e+00    1.027709e+01   1.334472e-01
  2.370573e+00    1.078657e+01   1.373882e-01
  2.374547e+00    1.090490e+01   1.389843e-01
  2.378521e+00    1.134792e+01   1.424983e-01
  2.382495e+00    1.124318e+01   1.417813e-01
  2.386469e+00    1.168520e+01   1.455592e-01
  2.390443e+00    1.169311e+01   1.463141e-01
  2.394417e+00    1.177240e+01   1.476018e-01
  2.398392e+00    1.191974e+01   1.495462e-01
  2.402366e+00    1.207148e+01   1.511822e-01
  2.406340e+00    1.270689e+01   1.552092e-01
  2.410314e+00    1.260385e+01   1.554515e-01
  2.414288e+00    1.305981e+01   1.588149e-01
  2.418262e+00    1.318106e+01   1.598773e-01
  2.422236e+00    1.272431e+01   1.573537e-01
  2.426211e+00    1.318520e+01   1.596516e-01
  2.430185e+00    1.381096e+01   1.628472e-01
  2.434159e+00    1.329461e+01   1.591730e-01
  2.438133e+00    1.345190e+01   1.602784e-01
  2.442107e+00    1.312456e+01   1.580114e-01
  2.446081e+00    1.371953e+01   1.615687e-01
  2.450055e+00    1.371729e+01   1.614068e-01
  2.454029e+00    1.450266e+01   1.652477e-01
  2.458004e+00    1.531385e+01   1.694395e-01
  2.461978e+00    1.704360e+01   1.783898e-01
  2.465952e+00    2.133172e+01   1.998191e-01
  2.469926e+00    2.427047e+01   2.124908e-01
  2.473900e+00    2.467095e+01   2.145113e-01
  2.477874e+00    2.556571e+01   2.176502e-01
  2.481848e+00    2.821833e+01   2.278500e-01
  2.485823e+00    2.562493e+01   2.165823e-01
  2.489797e+00    2.164687e+01   1.991062e-01
  2.493771e+00    2.001278e+01   1.913090e-01
  2.497745e+00    1.925071e+01   1.874073e-01
  2.501719e+00    1.718684e+01   1.772112e-01
  2.505693e+00    1.676203e+01   1.741404e-01
  2.509667e+00    1.628529e+01   1.713622e-01
  2.513642e+00    1.518201e+01   1.650268e-01
  2.517616e+00    1.457578e+01   1.618008e-01
  2.521590e+00    1.485931e+01   1.632183e-01
  2.525564e+00    1.473438e+01   1.623465e-01
  2.529538e+00    1.465378e+01   1.620203e-01
  2.533512e+00    1.485306e+01   1.621037e-01
  2.537486e+00    1.472045e+01   1.613307e-01
  2.541461e+00    1.466868e+01   1.605743e-01
  2.545435e+00    1.449221e+01   1.597672e-01
  2.549409e+00    1.446914e+01   1.594231e-01
  2.553383e+00    1.436157e+01   1.587120e-01
  2.557357e+00    1.456739e+01   1.599382e-01
  2.561331e+00    1.442653e+01   1.582281e-01
  2.565305e+00    1.434735e+01   1.577394e-01
  2.569279e+00    1.435936e+01   1.574689e-01
  2.573254e+00    1.458083e+01   1.586869e-01
  2.577228e+00    1.456447e+01   1.585854e-01
  2.581202e+00    1.442746e+01   1.575073e-01
  2.585176e+00    1.377621e+01   1.540809e-01
  2.589150e+00    1.368506e+01   1.527596e-01
  2.593124e+00    1.382525e+01   1.533190e-01
  2.597098e+00    1.369392e+01   1.525388e-01
  2.601073e+00    1.367885e+01   1.521716e-01
  2.605047e+00    1.383749e+01   1.532040e-01
  2.609021e+00    1.469129e+01   1.573947e-01
  2.612995e+00    1.462679e+01   1.572124e-01
  2.616969e+00    1.471716e+01   1.571402e-01
  2.620943e+00    1.462068e+01   1.561210e-01
  2.624917e+00    1.438493e+01   1.550091e-01
  2.628892e+00    1.383261e+01   1.515635e-01
  2.632866e+00    1.372376e+01   1.511026e-01
  2.636840e+00    1.391156e+01   1.519999e-01
  2.640814e+00    1.406120e+01   1.526050e-01
  2.644788e+00    1.395216e+01   1.521276e-01
  2.648762e+00    1.380263e+01   1.497321e-01
  2.652736e+00    1.296437e+01   1.440613e-01
  2.656710e+00    1.283482e+01   1.421474e-01
  2.660685e+00    1.262329e+01   1.397307e-01
  2.664659e+00    1.222971e+01   1.366281e-01
  2.668633e+00    1.214527e+01   1.349427e-01
  2.672607e+00    1.219745e+01   1.343029e-01
  2.676581e+00    1.209024e+01   1.326756e-01
  2.680555e+00    1.271963e+01   1.344583e-01
  2.684529e+00    1.318497e+01   1.351771e-01
  2.688504e+00    1.349315e+01   1.351082e-01
  2.692478e+00    1.380363e+01   1.350731e-01
  2.696452e+00    1.320735e+01   1.306618e-01
  2.700426e+00    1.230968e+01   1.247489e-01
  2.704400e+00    1.207841e+01   1.221698e-01
  2.708374e+00    1.197118e+01   1.203531e-01
  2.712348e+00    1.175469e+01   1.180661e-01
  2.716323e+00    1.111991e+01   1.137423e-01
  2.720297e+00    1.089940e+01   1.115472e-01
  2.724271e+00    1.094323e+01   1.107401e-01
  2.728245e+00    1.051573e+01   1.076045e-01
  2.732219e+00    1.018220e+01   1.049232e-01
  2.736193e+00    1.021407e+01   1.041361e-01
  2.740167e+00    9.688478e+00   1.005790e-01
  2.744141e+00    9.115675e+00   9.679158e-02
  2.748116e+00    9.138619e+00   9.614741e-02
  2.752090e+00    8.731936e+00   9.326535e-02
  2.756064e+00    8.522110e+00   9.144487e-02
  2.760038e+00    8.232203e+00   8.921343e-02
  2.764012e+00    8.138904e+00   8.803284e-02
  2.767986e+00    8.284252e+00   8.816719e-02
  2.771960e+00    7.895230e+00   8.548020e-02
  2.775935e+00    7.837199e+00   8.457578e-02
  2.779909e+00    7.945520e+00   8.461285e-02
  2.783883e+00    7.830619e+00   8.344089e-02
  2.787857e+00    7.822340e+00   8.288607e-02
  2.791831e+00    7.741350e+00   8.193165e-02
  2.795805e+00    7.708303e+00   8.122930e-02
  2.799779e+00    7.514419e+00   7.970613e-02
  2.803754e+00    7.295243e+00   7.805866e-02
  2.807728e+00    7.318444e+00   7.774000e-02
  2.811702e+00    7.108937e+00   7.618269e-02
  2.815676e+00    6.940756e+00   7.484704e-02
  2.819650e+00    6.999510e+00   7.476103e-02
  2.823624e+00    7.169598e+00   7.525031e-02
  2.827598e+00    7.092300e+00   7.443958e-02
  2.831572e+00    7.420344e+00   7.565993e-02
  2.835547e+00    8.500592e+00   8.023727e-02
  2.839521e+00    9.242001e+00   8.294119e-02
  2.843495e+00    9.532531e+00   8.351068e-02
  2.847469e+00    1.008441e+01   8.513963e-02
  2.851443e+00    9.852423e+00   8.340984e-02
  2.855417e+00    9.261823e+00   8.024419e-02
  2.859391e+00    8.580603e+00   7.663782e-02
  2.863366e+00    7.949283e+00   7.314453e-02
  2.867340e+00    7.398451e+00   7.000097e-02
  2.871314e+00    6.968007e+00   6.745572e-02
  2.875288e+00    6.585641e+00   6.512202e-02
  2.879262e+00    5.895934e+00   6.117771e-02
  2.883236e+00    5.736730e+00   5.989732e-02
  2.887210e+00    5.625854e+00   5.894023e-02
  2.891185e+00    5.442390e+00   5.759397e-02
  2.895159e+00    5.177260e+00   5.575888e-02
  2.899133e+00    5.256105e+00   5.551764e-02
  2.903107e+00    5.231647e+00   5.478778e-02
  2.907081e+00    5.094765e+00   5.349665e-02
  2.911055e+00    5.148289e+00   5.323482e-02
  2.915029e+00    5.147303e+00   5.266826e-02
  2.919004e+00    5.066870e+00   5.174509e-02
  2.922978e+00    5.127009e+00   5.156298e-02
  2.926952e+00    5.191037e+00   5.142796e-02
  2.930926e+00    5.299893e+00   5.148778e-02
  2.934900e+00    5.269919e+00   5.089460e-02
  2.938874e+00    5.121884e+00   4.974885e-02
  2.942848e+00    5.124423e+00   4.937268e-02
  2.946822e+00    5.009411e+00   4.842750e-02
  2.950797e+00    4.805305e+00   4.704156e-02
  2.954771e+00    4.716088e+00   4.624993e-02
  2.958745e+00    4.860377e+00   4.660837e-02
  2.962719e+00    4.980145e+00   4.685582e-02
  2.966693e+00    5.082676e+00   4.699790e-02
  2.970667e+00    5.483542e+00   4.846583e-02
  2.974641e+00    5.509055e+00   4.825009e-02
  2.978616e+00    5.634288e+00   4.847565e-02
  2.982590e+00    5.561903e+00   4.786810e-02
  2.986564e+00    5.489335e+00   4.724405e-02
  2.990538e+00    5.196818e+00   4.567504e-02
  2.994512e+00    5.300103e+00   4.585319e-02
  2.998486e+00    5.568841e+00   4.672675e-02
  3.002460e+00    5.653058e+00   4.681016e-02
  3.006435e+00    5.373454e+00   4.536944e-02
  3.010409e+00    5.375392e+00   4.512077e-02
  3.014383e+00    5.068341e+00   4.356973e-02
  3.018357e+00    4.807723e+00   4.220704e-02
  3.022331e+00    4.503687e+00   4.064408e-02
  3.026305e+00    4.475079e+00   4.029422e-02
  3.030279e+00    4.366027e+00   3.959036e-02
  3.034253e+00    4.194389e+00   3.861127e-02
  3.038228e+00    4.066360e+00   3.783104e-02
  3.042202e+00    4.077112e+00   3.770614e-02
  3.046176e+00    4.012551e+00   3.721396e-02
  3.050150e+00    3.915400e+00   3.650705e-02
  3.054124e+00    3.698154e+00   3.524716e-02
  3.058098e+00    3.690119e+00   3.497289e-02
  3.062072e+00    3.532169e+00   3.399851e-02
  3.066047e+00    3.483655e+00   3.355039e-02
  3.070021e+00    3.401991e+00   3.294733e-02
  3.073995e+00    3.086945e+00   3.120058e-02
  3.077969e+00    3.105662e+00   3.110509e-02
  3.081943e+00    3.072779e+00   3.076344e-02
  3.085917e+00    3.102234e+00   3.071880e-02
  3.089891e+00    3.055066e+00   3.022023e-02
  3.093866e+00    3.147917e+00   3.042200e-02
  3.097840e+00    3.115657e+00   3.002943e-02
  3.101814e+00    3.101002e+00   2.972625e-02
  3.105788e+00    3.044677e+00   2.922844e-02
  3.109762e+00    3.217551e+00   2.982996e-02
  3.113736e+00    3.282035e+00   2.991504e-02
  3.117710e+00    3.023325e+00   2.851107e-02
  3.121684e+00    3.022013e+00   2.831028e-02
  3.125659e+00    2.937993e+00   2.773902e-02
  3.129633e+00    2.965106e+00   2.768025e-02
  3.133607e+00    2.977556e+00   2.756784e-02
  3.137581e+00    2.985673e+00   2.743755e-02
  3.141555e+00    3.084303e+00   2.771599e-02
  3.145529e+00    3.047913e+00   2.739636e-02
  3.149503e+00    2.873321e+00   2.644525e-02
  3.153478e+00    2.906766e+00   2.644631e-02
  3.157452e+00    2.815946e+00   2.589629e-02
  3.161426e+00    2.720309e+00   2.528247e-02
  3.165400e+00    2.788811e+00   2.539363e-02
  3.169374e+00    2.779824e+00   2.514807e-02
  3.173348e+00    2.893257e+00   2.545392e-02
  3.177322e+00    2.938602e+00   2.546606e-02
  3.181297e+00    2.933705e+00   2.525337e-02
  3.185271e+00    2.948230e+00   2.514538e-02
  3.189245e+00    2.851231e+00   2.455506e-02
  3.193219e+00    2.836837e+00   2.433510e-02
  3.197193e+00    2.789817e+00   2.397649e-02
  3.201167e+00    2.754553e+00   2.367339e-02
  3.205141e+00    2.712936e+00   2.335398e-02
  3.209115e+00    2.593979e+00   2.269611e-02
  3.213090e+00    2.450260e+00   2.193653e-02
  3.217064e+00    2.435060e+00   2.173788e-02
  3.221038e+00    2.425309e+00   2.158124e-02
  3.225012e+00    2.392376e+00   2.131235e-02
  3.228986e+00    2.374596e+00   2.112857e-02
  3.232960e+00    2.377700e+00   2.102640e-02
  3.236934e+00    2.460961e+00   2.128968e-02
  3.240909e+00    2.312568e+00   2.052951e-02
  3.244883e+00    2.281625e+00   2.026098e-02
  3.248857e+00    2.303174e+00   2.019269e-02
  3.252831e+00    2.354701e+00   2.025617e-02
  3.256805e+00    2.397582e+00   2.023164e-02
  3.260779e+00    2.387812e+00   1.999887e-02
  3.264753e+00    2.480096e+00   2.019477e-02
  3.268728e+00    2.556013e+00   2.032464e-02
  3.272702e+00    2.544386e+00   2.011147e-02
  3.276676e+00    2.581268e+00   2.009480e-02
  3.280650e+00    2.574736e+00   1.991952e-02
  3.284624e+00    2.501225e+00   1.948902e-02
  3.288598e+00    2.510206e+00   1.938745e-02
  3.292572e+00    2.538039e+00   1.936248e-02
  3.296546e+00    2.463212e+00   1.894885e-02
  3.300521e+00    2.392349e+00   1.855838e-02
  3.304495e+00    2.441490e+00   1.863221e-02
  3.308469e+00    2.335495e+00   1.811387e-02
  3.312443e+00    2.374361e+00   1.816097e-02
  3.316417e+00    2.352770e+00   1.797648e-02
  3.320391e+00    2.268295e+00   1.755388e-02
  3.324365e+00    2.245026e+00   1.737317e-02
  3.328340e+00    2.196123e+00   1.709244e-02
  3.332314e+00    2.114305e+00   1.668591e-02
  3.336288e+00    2.038276e+00   1.630409e-02
  3.340262e+00    1.978904e+00   1.598732e-02
  3.344236e+00    2.072690e+00   1.617037e-02
  3.348210e+00    2.270564e+00   1.668234e-02
  3.352184e+00    2.383368e+00   1.689761e-02
  3.356159e+00    2.401447e+00   1.679660e-02
  3.360133e+00    2.488710e+00   1.692285e-02
  3.364107e+00    2.608743e+00   1.711053e-02
  3.368081e+00    2.689452e+00   1.717823e-02
  3.372055e+00    2.764024e+00   1.723365e-02
  3.376029e+00    2.864979e+00   1.734970e-02
  3.380003e+00    2.887554e+00   1.724007e-02
  3.383978e+00    3.017606e+00   1.746192e-02
  3.387952e+00    3.001465e+00   1.726689e-02
  3.391926e+00    3.019969e+00   1.718286e-02
  3.395900e+00    3.014503e+00   1.704062e-02
  3.399874e+00    3.049469e+00   1.701990e-02
  3.403848e+00    3.085662e+00   1.700784e-02
  3.407822e+00    3.107993e+00   1.696267e-02
  3.411796e+00    3.038577e+00   1.667238e-02
  3.415771e+00    2.899843e+00   1.619375e-02
  3.419745e+00    2.685595e+00   1.549853e-02
  3.423719e+00    3.126738e+00   1.622508e-02
  3.427693e+00    3.636175e+00   1.697762e-02
  3.431667e+00    3.749697e+00   1.695536e-02
  3.435641e+00    3.524543e+00   1.639426e-02
  3.439615e+00    3.171167e+00   1.554991e-02
  3.443590e+00    2.875156e+00   1.480569e-02
  3.447564e+00    2.527832e+00   1.388201e-02
  3.451538e+00    2.157325e+00   1.282370e-02
  3.455512e+00    1.748299e+00   1.154369e-02
  3.459486e+00    1.218068e+00   9.634900e-03
  3.463460e+00    2.106884e-01   4.090254e-03
  3.467434e+00    0.000000e+00   0.000000e+00
  3.471409e+00    0.000000e+00   0.000000e+00
  3.475383e+00    0.000000e+00   0.000000e+00
  3.479357e+00    0.000000e+00   0.000000e+00
  3.483331e+00    0.000000e+00   0.000000e+00
  3.487305e+00    0.000000e+00   0.000000e+00
  3.491279e+00    0.000000e+00   0.000000e+00
  3.495253e+00    0.000000e+00   0.000000e+00
  3.499227e+00    0.000000e+00   0.000000e+00
  3.503202e+00    0.000000e+00   0.000000e+00
  3.507176e+00    0.000000e+00   0.000000e+00
  3.511150e+00    0.000000e+00   0.000000e+00
  3.515124e+00    0.000000e+00   0.000000e+00
  3.519098e+00    0.000000e+00   0.000000e+00
  3.523072e+00    0.000000e+00   0.000000e+00
  3.527046e+00    0.000000e+00   0.000000e+00
  3.531021e+00    0.000000e+00   0.000000e+00
  3.534995e+00    0.000000e+00   0.000000e+00
  3.538969e+00    0.000000e+00   0.000000e+00
  3.542943e+00    0.000000e+00   0.000000e+00
  3.546917e+00    0.000000e+00   0.000000e+00
  3.550891e+00    0.000000e+00   0.000000e+00
  3.554865e+00    0.000000e+00   0.000000e+00
  3.558840e+00    0.000000e+00   0.000000e+00
  3.562814e+00    0.000000e+00   0.000000e+00
  3.566788e+00    0.000000e+00   0.000000e+00
  3.570762e+00    0.000000e+00   0.000000e+00
  3.574736e+00    0.000000e+00   0.000000e+00
  3.578710e+00    0.000000e+00   0.000000e+00
  3.582684e+00    0.000000e+00   0.000000e+00
  3.586658e+00    0.000000e+00   0.000000e+00
  3.590633e+00    0.000000e+00   0.000000e+00
  3.594607e+00    0.000000e+00   0.000000e+00
  3.598581e+00    0.000000e+00   0.000000e+00
  3.602555e+00    0.000000e+00   0.000000e+00
  3.606529e+00    0.000000e+00   0.000000e+00
  3.610503e+00    0.000000e+00   0.000000e+00
  3.614477e+00    0.000000e+00   0.000000e+00
  3.618452e+00    0.000000e+00   0.000000e+00
  3.622426e+00    0.000000e+00   0.000000e+00
  3.626400e+00    0.000000e+00   0.000000e+00
  3.630374e+00    0.000000e+00   0.000000e+00
  3.634348e+00    0.000000e+00   0.000000e+00
  3.638322e+00    0.000000e+00   0.000000e+00
  3.642296e+00    0.000000e+00   0.000000e+00
  3.646271e+00    0.000000e+00   0.000000e+00
  3.650245e+00    0.000000e+00   0.000000e+00
  3.654219e+00    0.000000e+00   0.000000e+00
  3.658193e+00    0.000000e+00   0.000000e+00
  3.662167e+00    0.000000e+00   0.000000e+00
  3.666141e+00    0.000000e+00   0.000000e+00
  3.670115e+00    0.000000e+00   0.000000e+00
  3.674089e+00    0.000000e+00   0.000000e+00
  3.678064e+00    0.000000e+00   0.000000e+00
  3.682038e+00    0.000000e+00   0.000000e+00
  3.686012e+00    0.000000e+00   0.000000e+00
  3.689986e+00    0.000000e+00   0.000000e+00
  3.693960e+00    0.000000e+00   0.000000e+00
  3.697934e+00    0.000000e+00   0.000000e+00
  3.701908e+00    0.000000e+00   0.000000e+00
  3.705883e+00    0.000000e+00   0.000000e+00
  3.709857e+00    0.000000e+00   0.000000e+00
  3.713831e+00    0.000000e+00   0.000000e+00
  3.717805e+00    0.000000e+00   0.000000e+00
  3.721779e+00    0.000000e+00   0.000000e+00
  3.725753e+00    0.000000e+00   0.000000e+00
  3.729727e+00    0.000000e+00   0.000000e+00
  3.733702e+00    0.000000e+00   0.000000e+00
  3.737676e+00    0.000000e+00   0.000000e+00
  3.741650e+00    0.000000e+00   0.000000e+00
  3.745624e+00    0.000000e+00   0.000000e+00
  3.749598e+00    0.000000e+00   0.000000e+00
  3.753572e+00    0.000000e+00   0.000000e+00
  3.757546e+00    0.000000e+00   0.000000e+00
  3.761521e+00    0.000000e+00   0.000000e+00
  3.765495e+00    0.000000e+00   0.000000e+00
  3.769469e+00    0.000000e+00   0.000000e+00
  3.773443e+00    0.000000e+00   0.000000e+00
  3.777417e+00    0.000000e+00   0.000000e+00
  3.781391e+00    0.000000e+00   0.000000e+00
  3.785365e+00    0.000000e+00   0.000000e+00
  3.789339e+00    0.000000e+00   0.000000e+00
  3.793314e+00    0.000000e+00   0.000000e+00
  3.797288e+00    0.000000e+00   0.000000e+00
  3.801262e+00    0.000000e+00   0.000000e+00
  3.805236e+00    0.000000e+00   0.000000e+00
  3.809210e+00    0.000000e+00   0.000000e+00
  3.813184e+00    0.000000e+00   0.000000e+00
  3.817158e+00    0.000000e+00   0.000000e+00
  3.821133e+00    0.000000e+00   0.000000e+00
  3.825107e+00    0.000000e+00   0.000000e+00
  3.829081e+00    0.000000e+00   0.000000e+00
  3.833055e+00    0.000000e+00   0.000000e+00
  3.837029e+00    0.000000e+00   0.000000e+00
  3.841003e+00    0.000000e+00   0.000000e+00
  3.844977e+00    0.000000e+00   0.000000e+00
  3.848952e+00    0.000000e+00   0.000000e+00
  3.852926e+00    0.000000e+00   0.000000e+00
  3.856900e+00    0.000000e+00   0.000000e+00
  3.860874e+00    0.000000e+00   0.000000e+00
  3.864848e+00    0.000000e+00   0.000000e+00
  3.868822e+00    0.000000e+00   0.000000e+00
  3.872796e+00    0.000000e+00   0.000000e+00
  3.876770e+00    0.000000e+00   0.000000e+00
  3.880745e+00    0.000000e+00   0.000000e+00
  3.884719e+00    0.000000e+00   0.000000e+00
  3.888693e+00    0.000000e+00   0.000000e+00
  3.892667e+00    0.000000e+00   0.000000e+00
  3.896641e+00    0.000000e+00   0.000000e+00
  3.900615e+00    0.000000e+00   0.000000e+00
  3.904589e+00    0.000000e+00   0.000000e+00
  3.908564e+00    0.000000e+00   0.000000e+00
  3.912538e+00    0.000000e+00   0.000000e+00
  3.916512e+00    0.000000e+00   0.000000e+00
  3.920486e+00    0.000000e+00   0.000000e+00
  3.924460e+00    0.000000e+00   0.000000e+00
  3.928434e+00    0.000000e+00   0.000000e+00
  3.932408e+00    0.000000e+00   0.000000e+00
  3.936383e+00    0.000000e+00   0.000000e+00
  3.940357e+00    0.000000e+00   0.000000e+00
  3.944331e+00    0.000000e+00   0.000000e+00
  3.948305e+00    0.000000e+00   0.000000e+00
  3.952279e+00    0.000000e+00   0.000000e+00
  3.956253e+00    0.000000e+00   0.000000e+00
  3.960227e+00    0.000000e+00   0.000000e+00
  3.964201e+00    0.000000e+00   0.000000e+00
  3.968176e+00    0.000000e+00   0.000000e+00
  3.972150e+00    0.000000e+00   0.000000e+00
